node1,node2,energy,entanglement,error
0,256,0.0,1.0,0.0
1,256,0.0,1.0,0.0
2,257,0.0,0.9999999999999998,0.0
3,258,0.0,0.9999999999999999,0.0
4,259,0.0,1.0,0.0
5,260,0.0,1.0,0.0
6,261,0.0,1.0,0.0
7,262,0.0,1.0,0.0
8,263,0.0,0.9999999999999999,0.0
9,264,0.0,0.9999999999999999,0.0
10,265,0.0,1.0,0.0
11,266,0.0,0.9999999999999999,0.0
12,267,0.0,0.9999999999999999,0.0
13,268,0.0,0.9999999999999999,0.0
14,269,0.0,1.0,0.0
15,270,0.0,0.9999999999999998,0.0
16,271,0.0,0.9999999999999999,0.0
17,272,0.0,1.0,0.0
18,273,0.0,0.9999999999999999,0.0
19,274,0.0,1.0,0.0
20,275,0.0,1.0,0.0
21,276,0.0,0.9999999999999999,0.0
22,277,0.0,0.9999999999999999,0.0
23,278,0.0,0.9999999999999998,0.0
24,279,0.0,0.9999999999999999,0.0
25,280,0.0,1.0,0.0
26,281,0.0,0.9999999999999999,0.0
27,282,0.0,0.9999999999999999,0.0
28,283,0.0,1.0,0.0
29,284,0.0,0.9999999999999998,0.0
30,285,0.0,1.0,0.0
31,286,0.0,0.9999999999999999,0.0
32,287,0.0,1.0,0.0
33,288,0.0,1.0,0.0
34,289,0.0,1.0,0.0
35,290,0.0,1.0,0.0
36,291,0.0,1.0,0.0
37,292,0.0,1.0,0.0
38,293,0.0,1.0,0.0
39,294,0.0,1.0,0.0
40,295,0.0,1.0,0.0
41,296,0.0,1.0,0.0
42,297,0.0,0.9999999999999998,0.0
43,298,0.0,0.9999999999999999,0.0
44,299,0.0,1.0,0.0
45,300,0.0,0.9999999999999999,0.0
46,301,0.0,0.9999999999999999,0.0
47,302,0.0,1.0,0.0
48,303,0.0,1.0,0.0
49,304,0.0,1.0,0.0
50,305,0.0,1.0,0.0
51,306,0.0,1.0,0.0
52,307,0.0,1.0,0.0
53,308,0.0,1.0,0.0
54,309,0.0,0.9999999999999998,0.0
55,310,0.0,0.9999999999999999,0.0
56,311,0.0,1.0,0.0
57,312,0.0,0.9999999999999998,0.0
58,313,0.0,1.0,0.0
59,314,0.0,1.0,0.0
60,315,0.0,1.0,0.0
61,316,0.0,1.0,0.0
62,317,0.0,0.9999999999999999,0.0
63,318,0.0,1.0,0.0
64,319,0.0,0.9999999999999999,0.0
65,320,0.0,0.9999999999999999,0.0
66,321,0.0,1.0,0.0
67,322,0.0,1.0,0.0
68,323,0.0,1.0,0.0
69,324,0.0,0.9999999999999998,0.0
70,325,0.0,0.9999999999999999,0.0
71,326,0.0,1.0,0.0
72,327,0.0,1.0,0.0
73,328,0.0,0.9999999999999999,0.0
74,329,0.0,0.9999999999999998,0.0
75,330,0.0,0.9999999999999999,0.0
76,331,0.0,1.0,0.0
77,332,0.0,0.9999999999999998,0.0
78,333,0.0,0.9999999999999999,0.0
79,334,0.0,0.9999999999999998,0.0
80,335,0.0,1.0,0.0
81,336,0.0,0.9999999999999999,0.0
82,337,0.0,0.9999999999999998,0.0
83,338,0.0,1.0,0.0
84,339,0.0,1.0,0.0
85,340,0.0,0.9999999999999999,0.0
86,341,0.0,1.0,0.0
87,342,0.0,1.0,0.0
88,343,0.0,0.9999999999999999,0.0
89,344,0.0,0.9999999999999999,0.0
90,345,0.0,0.9999999999999999,0.0
91,346,0.0,1.0,0.0
92,347,0.0,1.0,0.0
93,348,0.0,1.0,0.0
94,349,0.0,0.9999999999999999,0.0
95,350,0.0,1.0,0.0
96,351,0.0,0.9999999999999999,0.0
97,352,0.0,1.0,0.0
98,353,0.0,1.0,0.0
99,354,0.0,1.0,0.0
100,355,0.0,1.0,0.0
101,356,0.0,0.9999999999999999,0.0
102,357,0.0,1.0,0.0
103,358,0.0,1.0,0.0
104,359,0.0,0.9999999999999999,0.0
105,360,0.0,1.0,0.0
106,361,0.0,1.0,0.0
107,362,0.0,0.9999999999999999,0.0
108,363,0.0,0.9999999999999998,0.0
109,364,0.0,0.9999999999999999,0.0
110,365,0.0,0.9999999999999999,0.0
111,366,0.0,1.0,0.0
112,367,0.0,1.0,0.0
113,368,0.0,1.0,0.0
114,369,0.0,0.9999999999999998,0.0
115,370,0.0,0.9999999999999999,0.0
116,371,0.0,0.9999999999999999,0.0
117,372,0.0,0.9999999999999999,0.0
118,373,0.0,0.9999999999999999,0.0
119,374,0.0,1.0,0.0
120,375,0.0,0.9999999999999999,0.0
121,376,0.0,0.9999999999999999,0.0
122,377,0.0,1.0,0.0
123,378,0.0,1.0,0.0
124,379,0.0,1.0,0.0
125,380,0.0,1.0,0.0
126,381,0.0,1.0,0.0
127,382,0.0,0.9999999999999999,0.0
128,383,0.0,1.0,0.0
129,384,0.0,1.0,0.0
130,385,0.0,0.9999999999999999,0.0
131,386,0.0,1.0,0.0
132,387,0.0,0.9999999999999998,0.0
133,388,0.0,1.0,0.0
134,389,0.0,1.0,0.0
135,390,0.0,1.0,0.0
136,391,0.0,1.0,0.0
137,392,0.0,0.9999999999999999,0.0
138,393,0.0,1.0,0.0
139,394,0.0,1.0,0.0
140,395,0.0,0.9999999999999998,0.0
141,396,0.0,1.0,0.0
142,397,0.0,0.9999999999999998,0.0
143,398,0.0,1.0,0.0
144,399,0.0,0.9999999999999999,0.0
145,400,0.0,1.0,0.0
146,401,0.0,1.0,0.0
147,402,0.0,0.9999999999999998,0.0
148,403,0.0,0.9999999999999998,0.0
149,404,0.0,0.9999999999999999,0.0
150,405,0.0,0.9999999999999999,0.0
151,406,0.0,0.9999999999999999,0.0
152,407,0.0,0.9999999999999999,0.0
153,408,0.0,1.0,0.0
154,409,0.0,0.9999999999999999,0.0
155,410,0.0,1.0,0.0
156,411,0.0,0.9999999999999999,0.0
157,412,0.0,1.0,0.0
158,413,0.0,1.0,0.0
159,414,0.0,1.0,0.0
160,415,0.0,0.9999999999999998,0.0
161,416,0.0,1.0,0.0
162,417,0.0,1.0,0.0
163,418,0.0,0.9999999999999999,0.0
164,419,0.0,0.9999999999999999,0.0
165,420,0.0,0.9999999999999999,0.0
166,421,0.0,1.0,0.0
167,422,0.0,1.0,0.0
168,423,0.0,0.9999999999999998,0.0
169,424,0.0,0.9999999999999999,0.0
170,425,0.0,0.9999999999999999,0.0
171,426,0.0,0.9999999999999999,0.0
172,427,0.0,0.9999999999999999,0.0
173,428,0.0,1.0,0.0
174,429,0.0,1.0,0.0
175,430,0.0,1.0,0.0
176,431,0.0,1.0,0.0
177,432,0.0,0.9999999999999998,0.0
178,433,0.0,1.0,0.0
179,434,0.0,0.9999999999999999,0.0
180,435,0.0,0.9999999999999998,0.0
181,436,0.0,1.0,0.0
182,437,0.0,1.0,0.0
183,438,0.0,1.0,0.0
184,439,0.0,0.9999999999999999,0.0
185,440,0.0,0.9999999999999998,0.0
186,441,0.0,0.9999999999999999,0.0
187,442,0.0,1.0,0.0
188,443,0.0,1.0,0.0
189,444,0.0,0.9999999999999999,0.0
190,445,0.0,0.9999999999999999,0.0
191,446,0.0,0.9999999999999999,0.0
192,447,0.0,0.9999999999999999,0.0
193,448,0.0,0.9999999999999998,0.0
194,449,0.0,1.0,0.0
195,450,0.0,1.0,0.0
196,451,0.0,1.0,0.0
197,452,0.0,0.9999999999999998,0.0
198,453,0.0,0.9999999999999999,0.0
199,454,0.0,1.0,0.0
200,455,0.0,0.9999999999999999,0.0
201,456,0.0,0.9999999999999999,0.0
202,457,0.0,1.0,0.0
203,458,0.0,0.9999999999999999,0.0
204,459,0.0,0.9999999999999999,0.0
205,460,0.0,0.9999999999999999,0.0
206,461,0.0,1.0,0.0
207,462,0.0,1.0,0.0
208,463,0.0,0.9999999999999999,0.0
209,464,0.0,1.0,0.0
210,465,0.0,1.0,0.0
211,466,0.0,0.9999999999999999,0.0
212,467,0.0,0.9999999999999999,0.0
213,468,0.0,1.0,0.0
214,469,0.0,1.0,0.0
215,470,0.0,1.0,0.0
216,471,0.0,1.0,0.0
217,472,0.0,1.0,0.0
218,473,0.0,0.9999999999999999,0.0
219,474,0.0,1.0,0.0
220,475,0.0,0.9999999999999999,0.0
221,476,0.0,1.0,0.0
222,477,0.0,0.9999999999999998,0.0
223,478,0.0,1.0,0.0
224,479,0.0,1.0,0.0
225,480,0.0,0.9999999999999998,0.0
226,481,0.0,1.0,0.0
227,482,0.0,0.9999999999999999,0.0
228,483,0.0,1.0,0.0
229,484,0.0,1.0,0.0
230,485,0.0,1.0,0.0
231,486,0.0,0.9999999999999999,0.0
232,487,0.0,0.9999999999999998,0.0
233,488,0.0,1.0,0.0
234,489,0.0,1.0,0.0
235,490,0.0,0.9999999999999999,0.0
236,491,0.0,1.0,0.0
237,492,0.0,1.0,0.0
238,493,0.0,1.0,0.0
239,494,0.0,0.9999999999999998,0.0
240,495,0.0,1.0,0.0
241,496,0.0,0.9999999999999999,0.0
242,497,0.0,0.9999999999999999,0.0
243,498,0.0,0.9999999999999999,0.0
244,499,0.0,1.0,0.0
245,500,0.0,0.9999999999999998,0.0
246,501,0.0,0.9999999999999999,0.0
247,502,0.0,1.0,0.0
248,503,0.0,1.0,0.0
249,504,0.0,1.0,0.0
250,505,0.0,0.9999999999999999,0.0
251,506,0.0,0.9999999999999999,0.0
252,507,0.0,1.0,0.0
253,508,0.0,0.9999999999999998,0.0
254,509,0.0,1.0,0.0
255,509,0.0,0.9999999999999999,0.0
256,257,-97.92415219615893,0.13456730357322946,4.440892098500626e-16
257,258,-97.92415219615896,1.0004582982793964,-2.220446049250313e-16
258,259,-97.92415219615886,0.04013811860767533,6.661338147750939e-16
259,260,-97.92415219615887,1.0004607576846158,-4.440892098500626e-16
260,261,-97.92415219615879,0.13485250740411792,-1.9984014443252818e-15
261,262,-97.92415219615891,1.0001201644511606,-3.9968028886505635e-15
262,263,-97.92415219615899,0.011223482167103043,-1.7763568394002505e-15
263,264,-97.92415219615906,1.0001201647074442,-1.9984014443252818e-15
264,265,-97.92415219615894,0.13485258443838716,-8.881784197001252e-16
265,266,-97.92415219615907,1.0004608084233035,-1.3322676295501878e-15
266,267,-97.92415219615891,0.040139513991974726,-2.6645352591003757e-15
267,268,-97.92415219615901,1.0004589379203872,-3.552713678800501e-15
268,269,-97.92415219615918,0.1346359913782712,-8.881784197001252e-16
269,270,-97.92415219615917,1.0000315948705398,-3.1086244689504383e-15
270,271,-97.92415219615914,0.0031382889259932408,-1.3322676295501878e-15
271,272,-97.92415219615918,1.0000315948705167,-3.552713678800501e-15
272,273,-97.92415219615918,0.13463599137827909,-2.220446049250313e-15
273,274,-97.92415219615899,1.0004589379204147,-2.220446049250313e-15
274,275,-97.92415219615904,0.0401395139921058,-1.3322676295501878e-15
275,276,-97.92415219615923,1.0004608084233193,1.1102230246251565e-15
276,277,-97.92415219615901,0.13485258444496706,-2.6645352591003757e-15
277,278,-97.92415219615897,1.0001201647128748,-2.6645352591003757e-15
278,279,-97.92415219615914,0.011223482297335352,-3.3306690738754696e-15
279,280,-97.92415219615904,1.0001201645191315,-3.3306690738754696e-15
280,281,-97.92415219615914,0.13485252626945596,-8.881784197001252e-16
281,282,-97.9241521961592,1.0004607701008603,-6.661338147750939e-16
282,283,-97.92415219615904,0.04013846034300681,-2.6645352591003757e-15
283,284,-97.9241521961591,1.0004584547643183,-1.9984014443252818e-15
284,285,-97.9241521961591,0.13458414469296073,-3.1086244689504383e-15
285,286,-97.92415219615916,1.0000084208493443,-6.661338147750939e-16
286,287,-97.92415219615917,0.0008742064080243079,-8.881784197001252e-16
287,288,-97.92415219615901,1.0000084208493383,-8.881784197001252e-16
288,289,-97.9241521961591,0.13458414469295973,-2.220446049250313e-16
289,290,-97.9241521961591,1.0004584547643232,-1.1102230246251565e-15
290,291,-97.92415219615914,0.04013846034295483,-1.7763568394002505e-15
291,292,-97.92415219615924,1.0004607701007728,-6.661338147750939e-16
292,293,-97.9241521961592,0.1348525262694908,3.3306690738754696e-16
293,294,-97.92415219615916,1.000120164519229,-2.220446049250313e-15
294,295,-97.92415219615913,0.011223482297334463,-1.3322676295501878e-15
295,296,-97.9241521961591,1.000120164712777,-2.6645352591003757e-15
296,297,-97.92415219615916,0.1348525844449145,-1.5543122344752192e-15
297,298,-97.92415219615917,1.0004608084234041,-1.7763568394002505e-15
298,299,-97.92415219615913,0.040139513992148844,3.3306690738754696e-16
299,300,-97.924152196159,1.0004589379203945,-1.9984014443252818e-15
300,301,-97.9241521961592,0.13463599137828997,-1.7763568394002505e-15
301,302,-97.92415219615913,1.0000315948705398,-4.440892098500626e-15
302,303,-97.92415219615907,0.003138288925995117,0.0
303,304,-97.92415219615923,1.0000315948705167,-1.9984014443252818e-15
304,305,-97.92415219615913,0.13463599137826285,1.1102230246251565e-16
305,306,-97.92415219615918,1.000458937920409,-3.9968028886505635e-15
306,307,-97.92415219615931,0.040139513991975545,-1.9984014443252818e-15
307,308,-97.92415219615923,1.0004608084232434,-4.440892098500626e-16
308,309,-97.9241521961593,0.1348525844400503,7.771561172376096e-16
309,310,-97.92415219615923,1.0001201647088604,-1.1102230246251565e-15
310,311,-97.9241521961592,0.011223482199319389,-1.7763568394002505e-15
311,312,-97.92415219615901,1.0001201644678992,-1.1102230246251565e-15
312,313,-97.92415219615913,0.13485251207111898,5.551115123125783e-16
313,314,-97.92415219615914,1.000460760755668,0.0
314,315,-97.92415219615908,0.04013820316383124,-8.881784197001252e-16
315,316,-97.92415219615899,1.0004583369789684,-6.661338147750939e-16
316,317,-97.92415219615903,0.13457147299121658,-1.3322676295501878e-15
317,318,-97.92415219615887,1.0000022544712346,-3.3306690738754696e-15
318,319,-97.92415219615903,0.0002419812038580512,-1.3322676295501878e-15
319,320,-97.92415219615887,1.000002254471233,-6.661338147750939e-16
320,321,-97.92415219615883,0.1345714729912152,-2.4424906541753444e-15
321,322,-97.92415219615876,1.0004583369789692,-1.3322676295501878e-15
322,323,-97.92415219615891,0.040138203163780764,-1.9984014443252818e-15
323,324,-97.9241521961589,1.0004607607555787,3.3306690738754696e-16
324,325,-97.92415219615901,0.1348525120711604,-2.4424906541753444e-15
325,326,-97.92415219615889,1.000120164467996,-3.9968028886505635e-15
326,327,-97.92415219615883,0.011223482199318707,-1.7763568394002505e-15
327,328,-97.92415219615886,1.0001201647087632,-4.6629367034256575e-15
328,329,-97.92415219615879,0.13485258444000808,-4.440892098500626e-16
329,330,-97.92415219615876,1.0004608084233284,-1.1102230246251565e-15
330,331,-97.92415219615893,0.040139513992015104,-1.3322676295501878e-15
331,332,-97.92415219615897,1.0004589379203892,-3.774758283725532e-15
332,333,-97.92415219615908,0.13463599137827903,-2.4424906541753444e-15
333,334,-97.92415219615884,1.00003159487054,-2.4424906541753444e-15
334,335,-97.92415219615897,0.0031382889259934997,-1.9984014443252818e-15
335,336,-97.92415219615897,1.0000315948705167,-3.3306690738754696e-15
336,337,-97.92415219615904,0.13463599137827426,-4.440892098500626e-16
337,338,-97.92415219615881,1.0004589379204147,-8.881784197001252e-16
338,339,-97.92415219615901,0.040139513992104886,-2.4424906541753444e-15
339,340,-97.9241521961589,1.0004608084233193,-2.220446049250313e-16
340,341,-97.92415219615889,0.13485258444496437,0.0
341,342,-97.9241521961591,1.0001201647128748,-3.3306690738754696e-15
342,343,-97.9241521961591,0.011223482297334799,-1.7763568394002505e-15
343,344,-97.92415219615903,1.0001201645191315,-1.5543122344752192e-15
344,345,-97.92415219615887,0.13485252626944935,-1.3322676295501878e-15
345,346,-97.92415219615911,1.0004607701008603,1.6653345369377348e-15
346,347,-97.92415219615903,0.04013846034300421,-1.9984014443252818e-15
347,348,-97.92415219615917,1.0004584547643187,-1.3322676295501878e-15
348,349,-97.92415219615906,0.13458414469296182,9.992007221626409e-16
349,350,-97.92415219615908,1.0000084208493443,-3.1086244689504383e-15
350,351,-97.92415219615921,0.0008742064080240833,-4.440892098500626e-16
351,352,-97.92415219615911,1.0000084208493385,-2.886579864025407e-15
352,353,-97.92415219615921,0.1345841446929504,-4.440892098500626e-15
353,354,-97.92415219615923,1.0004584547643232,-1.7763568394002505e-15
354,355,-97.92415219615914,0.0401384603429569,-1.5543122344752192e-15
355,356,-97.92415219615911,1.0004607701007728,-3.1086244689504383e-15
356,357,-97.92415219615913,0.13485252626948613,-8.881784197001252e-16
357,358,-97.92415219615918,1.000120164519229,-3.3306690738754696e-15
358,359,-97.92415219615918,0.011223482297334757,-4.6629367034256575e-15
359,360,-97.92415219615921,1.000120164712777,-1.5543122344752192e-15
360,361,-97.92415219615914,0.1348525844449165,-1.5543122344752192e-15
361,362,-97.92415219615918,1.0004608084234041,-2.220446049250313e-16
362,363,-97.92415219615903,0.04013951399214764,7.771561172376096e-16
363,364,-97.92415219615911,1.000458937920395,-2.886579864025407e-15
364,365,-97.92415219615903,0.13463599137828722,4.440892098500626e-16
365,366,-97.92415219615897,1.0000315948705398,-2.220446049250313e-15
366,367,-97.924152196159,0.0031382889259942877,-6.661338147750939e-16
367,368,-97.92415219615893,1.0000315948705167,-2.6645352591003757e-15
368,369,-97.92415219615908,0.13463599137827018,-1.7763568394002505e-15
369,370,-97.92415219615904,1.0004589379204076,-4.440892098500626e-15
370,371,-97.92415219615907,0.040139513991947116,-1.3322676295501878e-15
371,372,-97.924152196159,1.0004608084232245,-2.220446049250313e-15
372,373,-97.924152196159,0.13485258443883225,-2.220446049250313e-15
373,374,-97.92415219615904,1.0001201647078692,-1.3322676295501878e-15
374,375,-97.92415219615903,0.01122348217511809,-3.774758283725532e-15
375,376,-97.92415219615896,1.0001201644552502,-4.218847493575595e-15
376,377,-97.92415219615914,0.1348525085647201,0.0
377,378,-97.92415219615896,1.0004607584483434,-1.9984014443252818e-15
378,379,-97.92415219615896,0.04013813963774655,-2.886579864025407e-15
379,380,-97.9241521961591,1.0004583079021014,-1.7763568394002505e-15
380,381,-97.92415219615897,0.1345683408755137,-3.552713678800501e-15
381,382,-97.92415219615908,1.0000006035300728,-1.9984014443252818e-15
382,383,-97.92415219615944,6.650552027779222e-05,-1.7763568394002505e-15
508,509,-97.92415219615998,0.13456730357350644,5.551115123125783e-16
507,508,-97.92415219615994,1.0004582982793964,1.5543122344752192e-15
506,507,-97.92415219615997,0.04013811860767798,-1.5543122344752192e-15
505,506,-97.92415219615988,1.0004607576846156,-8.881784197001252e-16
504,505,-97.92415219615988,0.13485250740411248,-8.881784197001252e-16
503,504,-97.92415219616007,1.0001201644511608,-2.4424906541753444e-15
502,503,-97.92415219615987,0.01122348216710579,-3.552713678800501e-15
501,502,-97.92415219615982,1.0001201647074445,-2.4424906541753444e-15
500,501,-97.92415219616005,0.1348525844383851,-2.220446049250313e-15
499,500,-97.92415219615992,1.0004608084233035,-4.440892098500626e-16
498,499,-97.92415219616005,0.040139513991976114,-2.220446049250313e-15
497,498,-97.92415219616004,1.000458937920387,-3.1086244689504383e-15
496,497,-97.92415219615978,0.13463599137827958,-2.220446049250313e-16
495,496,-97.9241521961599,1.0000315948705398,-5.10702591327572e-15
494,495,-97.92415219615987,0.003138288925993815,-2.220446049250313e-16
493,494,-97.92415219615988,1.0000315948705167,-3.9968028886505635e-15
492,493,-97.92415219615988,0.13463599137826698,-4.440892098500626e-16
491,492,-97.92415219615984,1.0004589379204147,-2.220446049250313e-15
490,491,-97.92415219615981,0.040139513992107245,-3.1086244689504383e-15
489,490,-97.92415219615975,1.000460808423319,-6.661338147750939e-16
488,489,-97.9241521961597,0.134852584444961,-1.3322676295501878e-15
487,488,-97.92415219615957,1.0001201647128748,-2.6645352591003757e-15
486,487,-97.92415219615955,0.011223482297333852,-4.6629367034256575e-15
485,486,-97.9241521961595,1.0001201645191315,-3.552713678800501e-15
484,485,-97.92415219615945,0.13485252626945063,2.220446049250313e-16
483,484,-97.92415219615954,1.0004607701008603,0.0
482,483,-97.92415219615935,0.04013846034300232,-2.4424906541753444e-15
481,482,-97.9241521961593,1.0004584547643185,-8.881784197001252e-16
480,481,-97.92415219615937,0.13458414469295954,-2.220446049250313e-16
479,480,-97.92415219615955,1.0000084208493443,-1.1102230246251565e-15
478,479,-97.92415219615938,0.000874206408023657,-8.881784197001252e-16
477,478,-97.92415219615944,1.0000084208493383,-1.5543122344752192e-15
476,477,-97.92415219615937,0.1345841446929622,-1.7763568394002505e-15
475,476,-97.92415219615927,1.000458454764323,-4.440892098500626e-16
474,475,-97.92415219615937,0.04013846034295393,-3.1086244689504383e-15
473,474,-97.92415219615933,1.0004607701007728,-8.881784197001252e-16
472,473,-97.92415219615926,0.13485252626949024,0.0
471,472,-97.92415219615931,1.000120164519229,-3.1086244689504383e-15
470,471,-97.9241521961596,0.011223482297335345,-1.7763568394002505e-15
469,470,-97.92415219615954,1.000120164712777,-2.6645352591003757e-15
468,469,-97.92415219615953,0.1348525844449166,-1.1102230246251565e-15
467,468,-97.92415219615955,1.0004608084234041,-1.7763568394002505e-15
466,467,-97.92415219615944,0.04013951399214427,-1.7763568394002505e-15
465,466,-97.92415219615931,1.0004589379203948,-1.7763568394002505e-15
464,465,-97.92415219615941,0.13463599137828142,-2.886579864025407e-15
463,464,-97.92415219615948,1.00003159487054,-3.552713678800501e-15
462,463,-97.92415219615953,0.003138288925993334,-1.7763568394002505e-15
461,462,-97.92415219615951,1.0000315948705167,-1.1102230246251565e-15
460,461,-97.92415219615948,0.13463599137826524,-8.881784197001252e-16
459,460,-97.92415219615933,1.000458937920409,-2.886579864025407e-15
458,459,-97.92415219615957,0.04013951399197732,-4.440892098500626e-16
457,458,-97.92415219615941,1.0004608084232431,-2.220446049250313e-15
456,457,-97.92415219615957,0.13485258444004655,-2.886579864025407e-15
455,456,-97.92415219615958,1.0001201647088607,-3.9968028886505635e-15
454,455,-97.92415219615947,0.011223482199316952,-3.1086244689504383e-15
453,454,-97.92415219615938,1.0001201644678994,-3.1086244689504383e-15
452,453,-97.92415219615945,0.13485251207111384,-6.661338147750939e-16
451,452,-97.92415219615943,1.000460760755668,-1.3322676295501878e-15
450,451,-97.92415219615941,0.04013820316382749,-1.5543122344752192e-15
449,450,-97.92415219615955,1.0004583369789681,-2.6645352591003757e-15
448,449,-97.92415219615941,0.13457147299121397,2.220446049250313e-16
447,448,-97.92415219615938,1.0000022544712346,-1.9984014443252818e-15
